Time [s],Displacement [mm],Force [N]
19.2587890625,-8.682545856167172e-05,2.5983388480253375
19.2685546875,-9.331826667395058e-05,2.6385350752614194
19.2783203125,-9.801734014806093e-05,2.678354351143524
19.2880859375,-0.00010055786360057543,2.7176586953951696
19.2978515625,-0.0001006361152790876,2.756355108602117
19.3076171875,-9.802137818900003e-05,2.794397698054058
19.3173828125,-9.255432016879108e-05,2.8317586476159384
19.3271484375,-8.41319269297864e-05,2.868397579249294
19.3369140625,-7.268770327841286e-05,2.904256591321823
19.3466796875,-5.818008807437398e-05,2.9392782014331567
19.3564453125,-4.058831959538624e-05,2.973429837875107
19.3662109375,-1.99057132947717e-05,3.0067148192306505
19.3759765625,3.861351978864265e-06,3.039159965841749
19.3857421875,3.0676656914535276e-05,3.07079069609388
19.3955078125,6.0459784234468243e-05,3.101612146507128
19.4052734375,9.309725556412659e-05,3.1316132851021217
19.4150390625,0.000128469002698047,3.1607959407735318
19.4248046875,0.00016646976544391158,3.1892022315709867
19.4345703125,0.00020701154423323725,3.216911713986817
19.4443359375,0.0002500083555435888,3.244008719488437
19.4541015625,0.00029536608884146986,3.2705466672187176
19.4638671875,0.0003429833114667188,3.2965414905412964
19.4736328125,0.0003927484717777301,3.32199934439291
19.4833984375,0.0004445396290449706,3.3469475104308613
19.4931640625,0.0004982327561557479,3.3714409006432704
19.5029296875,0.0005537024130932045,3.395544928161374
19.5126953125,0.0006108033766002203,3.4193110969939617
19.5224609375,0.0006693478594258858,3.442766498878006
19.5322265625,0.0007291134341994217,3.465926326112183
19.5419921875,0.0007898880581262458,3.4888150697535707
19.5517578125,0.0008515077510203463,3.5114761002456656
19.5615234375,0.0009138560067492443,3.5339613474074736
19.5712890625,0.0009768451104023043,3.5563090643360806
19.5810546875,0.0010404047850944285,3.578527165725397
19.5908203125,0.0011044817360637406,3.600595444704575
19.6005859375,0.0011690407745912287,3.6224862326937446
19.6103515625,0.0012340596386830596,3.6441874475169316
19.6201171875,0.0012995239867538613,3.6657082489576815
19.6298828125,0.0013654213178619303,3.687063027630807
19.6396484375,0.001431726931146038,3.708249613095584
19.6494140625,0.0014983952255342979,3.729241696047455
19.6591796875,0.0015653712442524404,3.750002008459936
19.6689453125,0.0016326152354662474,3.770505581161491
19.6787109375,0.0017001163818009346,3.790751441838921
19.6884765625,0.0017678817781729762,3.8107507897183086
19.6982421875,0.0018359141980471535,3.8305049117933616
19.7080078125,0.0019042013862564924,3.849995107924728
19.7177734375,0.001972721426180236,3.8691964581061344
19.7275390625,0.0020414532139363135,3.8881060245702157
19.7373046875,0.0021103793038328602,3.9067577741850164
19.7470703125,0.0021794745293145503,3.92520985712933
19.7568359375,0.0022486964272604524,3.9435164376453105
19.7666015625,0.002317994919792049,3.9617044093681946
19.7763671875,0.0023873244717360622,3.9797700826634124
19.7861328125,0.002456646469219156,3.9976966227544204
19.7958984375,0.0025259368086001112,4.015476587135321
19.8056640625,0.002595190051355566,4.033121093544355
19.8154296875,0.0026644016653819334,4.050650377252282
19.8251953125,0.002733552704780797,4.068077324865569
19.8349609375,0.0028026207700999417,4.0854003074892535
19.8447265625,0.0028715928995534296,4.102614843057562
19.8544921875,0.0029404557609933202,4.119737886795892
19.8642578125,0.0030091796923043122,4.136818949817256
19.8740234375,0.003077718934534484,4.153923204877917
19.8837890625,0.0031460210362720294,4.171103480373291
19.8935546875,0.003214029573892176,4.188383576796549
19.9033203125,0.0032816812538724325,4.2057621136317795
19.9130859375,0.0033489065809269585,4.223233442149818
19.9228515625,0.003415640986800317,4.240810298177396
19.9326171875,0.0034818418365022037,4.258526839432657
19.9423828125,0.0035474913787410783,4.2764135265624486
19.9521484375,0.003612585373826604,4.294465212493815
19.9619140625,0.0036771293897315907,4.312635325486716
19.9716796875,0.0037411392495510353,4.330861412069674
19.9814453125,0.003804635390023408,4.349095258141761
19.9912109375,0.0038676440129066687,4.367313771134151
20.0009765625,0.003930199314189742,4.385507504484186
20.0107421875,0.003992330617197403,4.403656481813822
20.0205078125,0.004054051046674477,4.421714410847672
20.0302734375,0.004115364506197242,4.439619599479983
20.0400390625,0.004176281269101512,4.457323506044127
20.0498046875,0.004236829652648063,4.474810029506202
20.0595703125,0.004297058164920144,4.492091296620333
20.0693359375,0.004357030130134442,4.509187785450976
20.0791015625,0.004416815595819852,4.526110670631455
20.0888671875,0.00447647949652157,4.542861247134201
20.0986328125,0.004536073498138659,4.559447974778077
20.1083984375,0.004595642464649008,4.57590420301684
20.1181640625,0.004655232804800528,4.592289053439237
20.1279296875,0.004714890165010726,4.6086687862259
20.1376953125,0.0047746544666986196,4.625090126608121
20.1474609375,0.004834553387099809,4.641565678918057
20.1572265625,0.004894598296980984,4.6580854283354185
20.1669921875,0.004954794734574367,4.674645621644261
20.1767578125,0.005015155197194559,4.6912696900968065
20.1865234375,0.0050756964026240645,4.7080020827891
20.1962890625,0.005136430790736456,4.724880933075931
20.2060546875,0.005197365938069841,4.741916657194097
20.2158203125,0.005258505338656597,4.75909772870744
20.2255859375,0.005319848489919099,4.776419285146984
20.2353515625,0.005381398910126126,4.793908432862874
20.2451171875,0.005443174249149136,4.8116225007662
20.2548828125,0.005505207169670469,4.829622331133594
20.2646484375,0.005567537174071121,4.847945293565903
20.2744140625,0.00563020173059039,4.86660082451804
20.2841796875,0.005693234292083245,4.88558519787714
20.2939453125,0.0057566691935657935,4.904893995878102
20.3037109375,0.005820545443567916,4.92452315791838
20.3134765625,0.0058849010080342865,4.944462366285601
20.3232421875,0.005949762963462283,4.964683533213339
20.3330078125,0.0060151410191386125,4.9851337043241974
20.3427734375,0.0060810202333341935,5.005745738404342
20.3525390625,0.0061473585214870015,5.026463123907694
20.3623046875,0.006214105462267795,5.047257374586882
20.3720703125,0.006281229604820807,5.068120645117579
20.3818359375,0.006348715954203796,5.089039232545803
20.3916015625,0.0064165367495554754,5.109974176388531
20.4013671875,0.0064846398165529255,5.130868799619879
20.4111328125,0.006552967848584947,5.151675174449384
20.4208984375,0.006621478702500567,5.172375533939916
20.4306640625,0.006690143267917875,5.192981052901436
20.4404296875,0.006758931538940462,5.213508515221392
20.4501953125,0.006827803021414496,5.23395435539834
20.4599609375,0.006896700698506809,5.254285947822103
20.4697265625,0.00696554864191758,5.274453911888533
20.4794921875,0.007034256187920152,5.29441478298248
20.4892578125,0.007102731879831936,5.314144749122526
20.4990234375,0.0071709085687449315,5.333630975360925
20.5087890625,0.007238761302353976,5.352848660287569
20.5185546875,0.007306304708055789,5.371747295295322
20.5283203125,0.007373582526823072,5.390261559295863
20.5380859375,0.007440656487745324,5.40834046292426
20.5478515625,0.007507591876474336,5.425968318676577
20.5576171875,0.0075744432889934725,5.443154546379467
20.5673828125,0.007641244977569027,5.459906868855233
20.5771484375,0.007708008240146843,5.476219767662827
20.5869140625,0.00777472816031758,5.492082245936768
20.5966796875,0.007841396324829249,5.50749325229858
20.6064453125,0.00790801092289959,5.522478600239118
20.6162109375,0.007974581001684395,5.5370982209322355
20.6259765625,0.008041122734189854,5.55143102238288
20.6357421875,0.008107645066194845,5.56554526550989
20.6455078125,0.00817413829034237,5.579482174365908
20.6552734375,0.008240577306177718,5.593267807741046
20.6650390625,0.00830693132508972,5.606939044053619
20.6748046875,0.008373174714867435,5.620559797318837
20.6845703125,0.008439294178538101,5.634213062203292
20.6943359375,0.00850528258125335,5.647972394555076
20.7041015625,0.008571123714136543,5.6618768264389
20.7138671875,0.008636778860643925,5.675933182270077
20.7236328125,0.008702184980724786,5.690141644113084
20.7333984375,0.008767274849944943,5.704519819146865
20.7431640625,0.008832007950920597,5.719107169342611
20.7529296875,0.008896376417854056,5.733945938574202
20.7626953125,0.008960378732441448,5.7490523948212005
20.7724609375,0.009024007959836846,5.764405813921475
20.7822265625,0.009087275910311412,5.7799652020082215
20.7919921875,0.009150223796222257,5.795692545090852
20.8017578125,0.009212895926910977,5.811560939101817
20.8115234375,0.009275322101738119,5.827547733580395
20.8212890625,0.00933752603481454,5.843621937773952
20.8310546875,0.009399531055669907,5.859735663921912
20.8408203125,0.009461361335140688,5.875829469801953
20.8505859375,0.009523043410725256,5.891849332318719
20.8603515625,0.00958459812309591,5.907759750317768
20.8701171875,0.009646042244555465,5.923544164412917
20.8798828125,0.009707412035224534,5.939195428681129
20.8896484375,0.009768774008881714,5.954700606472629
20.8994140625,0.00983020804438466,5.970032742845858
20.9091796875,0.00989179208935301,5.985163806460487
20.9189453125,0.00995360057270804,6.000086863043072
20.9287109375,0.010015701232043614,6.014819918143906
20.9384765625,0.01007814487534271,6.029386043925795
20.9482421875,0.010140958643998076,6.043790204034765
20.9580078125,0.010204151919844386,6.05801062103157
20.9677734375,0.010267726548342281,6.072007415833419
20.9775390625,0.010331679492559876,6.085743277408506
20.9873046875,0.01039600103956693,6.099203586651442
20.9970703125,0.010460671077958903,6.112398728627793
21.0068359375,0.010525657297921761,6.12534591770267
21.0166015625,0.010590920768683298,6.1380499945614835
21.0263671875,0.010656422225647394,6.150502492435493
21.0361328125,0.01072212786339445,6.16269936429553
21.0458984375,0.010788013545278969,6.17465996841055
21.0556640625,0.010854059513416706,6.186427250305642
21.0654296875,0.010920240211556563,6.1980458671468535
21.0751953125,0.01098651509229027,6.209535738997543
21.0849609375,0.011052824282546184,6.220884005541209
21.0947265625,0.01111909647900504,6.232061656750869
21.1044921875,0.0111852650826419,6.243050370585656
21.1142578125,0.011251279997087376,6.253857491114708
21.1240234375,0.011317108155452192,6.264505217481205
21.1337890625,0.011382725423444755,6.275007283995605
21.1435546875,0.011448104055170244,6.285359687015653
21.1533203125,0.011513201719290041,6.295552064581103
21.1630859375,0.011577968311657518,6.30558853396671
21.1728515625,0.011642373398974152,6.315502213640708
21.1826171875,0.011706429436190996,6.325350705106747
21.1923828125,0.011770194806565817,6.335191822998483
21.2021484375,0.011833761938288473,6.345054307359329
21.2119140625,0.011897232282658174,6.354929790428196
21.2216796875,0.011960690623470646,6.364796946617551
21.2314453125,0.012024203205785849,6.374653300966191
21.2412109375,0.01208783191320139,6.384524392049905
21.2509765625,0.012151635234698874,6.39444661783635
21.2607421875,0.01221565279969801,6.404441836741994
21.2705078125,0.01227989744228906,6.414504813994987
21.2802734375,0.012344367153985592,6.42461268347913
21.2900390625,0.012409058639375817,6.434747837020265
21.2998046875,0.012473963722086314,6.444914417063107
21.3095703125,0.012539054200127945,6.455135454830163
21.3193359375,0.012604274903265822,6.465436283168823
21.3291015625,0.012669553488529106,6.475830291428636
21.3388671875,0.012734815063301846,6.486318645409951
21.3486328125,0.012799991735244013,6.496903160073529
21.3583984375,0.012865029166443234,6.50760020078393
21.3681640625,0.01292988907639594,6.518438472320047
21.3779296875,0.0129945431304114,6.5294360768143855
21.3876953125,0.013058961349580072,6.540576048420507
21.3974609375,0.01312310458804569,6.551803153415467
21.4072265625,0.013186927803187897,6.5630486239359875
21.4169921875,0.013250391635122344,6.57426777814783
21.4267578125,0.013313473349773395,6.585459161061384
21.4365234375,0.013376174338964946,6.596651565719556
21.4462890625,0.013438525584139119,6.607877369935966
21.4560546875,0.013500585515958542,6.619154755889546
21.4658203125,0.01356243131804435,6.630488624969353
21.4755859375,0.013624153472532222,6.64188651073682
21.4853515625,0.013685849877485473,6.6533722421397865
21.4951171875,0.013747610339253973,6.664980441507216
21.5048828125,0.013809500183086984,6.6767359598168605
21.5146484375,0.013871557584830739,6.688636868637275
21.5244140625,0.01393380281743405,6.7006556763082425
21.5341796875,0.013996252852301305,6.712762480690583
21.5439453125,0.014058935849636073,6.72494949698626
21.5537109375,0.014121892486034304,6.737230116640877
21.5634765625,0.01418516300316773,6.749618102006402
21.5732421875,0.014248777082327016,6.7621089142813835
21.5830078125,0.014312756843776996,6.774675853651363
21.5927734375,0.014377123134038997,6.787286591590394
21.6025390625,0.014441896274193115,6.799929869148132
21.6123046875,0.014507099176033088,6.812628883205984
21.6220703125,0.01457275978540349,6.825429288290467
21.6318359375,0.014638900217209337,6.838370512577026
21.6416015625,0.014705517699906698,6.851463048390227
21.6513671875,0.014772574446678772,6.864691767512016
21.6611328125,0.014840008587769604,6.878040069176304
21.6708984375,0.014907758976231023,6.8915083566896955
21.6806640625,0.01497578145651895,6.9051099376036795
21.6904296875,0.01504404357218375,6.9188504725450555
21.7001953125,0.015112504148111293,6.932708701901745
21.7099609375,0.015181092528244754,6.946634237093593
21.7197265625,0.015249708338223408,6.960565678346716
21.7294921875,0.015318255942491591,6.974457291498807
21.7392578125,0.015386684174601805,6.988294094107305
21.7490234375,0.015454981834620077,7.00208117346348
21.7587890625,0.015523142382753787,7.015817232775046
21.7685546875,0.015591156689914619,7.029478746054756
21.7783203125,0.015659036499769876,7.043028731866234
21.7880859375,0.01572682794463677,7.056442613316544
21.7978515625,0.015794606372206574,7.069728592407178
21.8076171875,0.015862463135082515,7.0829205927145
21.8173828125,0.01593049026829015,7.096049941057482
21.8271484375,0.015998777522094255,7.109124704617504
21.8369140625,0.01606742056578736,7.122132663332831
21.8466796875,0.016136511340986082,7.135061418604044
21.8564453125,0.01620611107629686,7.14791747885681
21.8662109375,0.016276238954407645,7.160727213678221
21.8759765625,0.016346876499259904,7.173518228116225
21.8857421875,0.016417968970759107,7.186296365805224
21.8955078125,0.01648942963782869,7.199035895679625
21.9052734375,0.016561152554125096,7.211692496339898
21.9150390625,0.01663302742321156,7.224232828507944
21.9248046875,0.016704954782889563,7.236655651793663
21.9345703125,0.016776856825039255,7.248985156396355
21.9443359375,0.01684867334938903,7.261244225202629
21.9541015625,0.016920345408176614,7.273431974191659
21.9638671875,0.01699180333974977,7.285527993517041
21.9736328125,0.01706297232992166,7.297519810239354
21.9833984375,0.017133792520743325,7.309421892265738
21.9931640625,0.017204230810085493,7.321267717073077
22.0029296875,0.017274272629518802,7.333087050188657
22.0126953125,0.017343913559160155,7.344887514662411
22.0224609375,0.017413161645453815,7.356652833826061
22.0322265625,0.017482047425215728,7.368360121326294
22.0419921875,0.017550634536784116,7.380003030398148
22.0517578125,0.017619002578553443,7.391599763744823
22.0615234375,0.017687209515004444,7.403180011973271
22.0712890625,0.0177552822115756,7.414764612743719
22.0810546875,0.017823230566668936,7.426352091830133
22.0908203125,0.017891049929076516,7.437920841018649
22.1005859375,0.017958719396357226,7.449450573283474
22.1103515625,0.018026209179421156,7.460946188323189
22.1201171875,0.018093485650494727,7.472437613768019
22.1298828125,0.01816051347349513,7.483955541871986
22.1396484375,0.018227263176091246,7.495508535854603
22.1494140625,0.018293713936950607,7.507081895647126
22.1591796875,0.018359841121988543,7.518656346698973
22.1689453125,0.018425607626086356,7.530228855716179
22.1787109375,0.018490976432807678,7.541817410494819
22.1884765625,0.01855593172013291,7.553443655976637
22.1982421875,0.018620487868523425,7.56510824312372
22.2080078125,0.01868467494623518,7.5767831616980565
22.2177734375,0.01874851650962665,7.588427554718863
22.2275390625,0.01881202718933036,7.600010624153126
22.2373046875,0.01887522433673286,7.611523497916227
22.2470703125,0.01893813055402102,7.622974623367282
22.2568359375,0.019000763724016493,7.63437188568928
22.2666015625,0.019063124986095005,7.645703585412108
22.2763671875,0.019125199954334305,7.6569376768839605
22.2861328125,0.019186987309465612,7.668042265206869
22.2958984375,0.019248532672076112,7.67900539494146
22.3056640625,0.019309927483239932,7.689834278298239
22.3154296875,0.0193712829824947,7.700537336769669
22.3251953125,0.019432710349063884,7.711106537937709
22.3349609375,0.019494307392291813,7.721515666151446
22.3447265625,0.019556149460940645,7.731739208600333
22.3544921875,0.019618284094405383,7.741779137781545
22.3642578125,0.01968072856615893,7.751678673189864
22.3740234375,0.019743478078192652,7.761510990949661
22.3837890625,0.019806517507361933,7.77134951571388
22.3935546875,0.019869830397318787,7.781244197677655
22.4033203125,0.019933409474045607,7.791224062690852
22.4130859375,0.01999725875844461,7.801320414038194
22.4228515625,0.020061390335955227,7.811584524983928
22.4326171875,0.0201258243057133,7.822079007133235
22.4423828125,0.020190573541080517,7.832850962306643
22.4521484375,0.02025561698584142,7.843914546214016
22.4619140625,0.020320896794621398,7.855257551138406
22.4716796875,0.020386345740322144,7.866864259801902
22.4814453125,0.020451909209516606,7.878737741076446
22.4912109375,0.02051753877227782,7.890904966063697
22.5009765625,0.02058318261915136,7.903398722409152
22.5107421875,0.020648792350851857,7.91623146685003
22.5205078125,0.02071432895476842,7.92938544548064
22.5302734375,0.020779759210391865,7.9428282229981395
22.5400390625,0.02084504819893728,7.956539943761153
22.5498046875,0.020910154955288553,7.9705306063470935
22.5595703125,0.020975046406859637,7.984836175681125
22.5693359375,0.021039716032686305,7.999496319084763
22.5791015625,0.021104173726275724,8.014528835462356
22.5888671875,0.021168422358306686,8.029921322901135
22.5986328125,0.02123245015618831,8.045646727140456
22.6083984375,0.021296236413459853,8.061685268726333
22.6181640625,0.021359767335135258,8.078027632963027
22.6279296875,0.021423047877998935,8.094654726397874
22.6376953125,0.021486093789796535,8.111513852748086
22.6474609375,0.021548924545375957,8.1285156479741
22.6572265625,0.02161156911466698,8.145558122902692
22.6669921875,0.021674069710618832,8.16255600836957
22.6767578125,0.02173648092309078,8.179450200176278
22.6865234375,0.021798861508368832,8.196195612282658
22.6962890625,0.0218612589440334,8.212742349107756
22.7060546875,0.021923702489125108,8.229027297752932
22.7158203125,0.02198620724302741,8.244983166848757
22.7255859375,0.022048782019824614,8.260558919912912
22.7353515625,0.022111437414979063,8.275736712538972
22.7451171875,0.022174183750484036,8.290528253064446
22.7548828125,0.02223702326825551,8.304951052303807
22.7646484375,0.022299958289115514,8.319005027200964
22.7744140625,0.022363009602890487,8.332670189650717
22.7841796875,0.02242622091469885,8.34592805339579
22.7939453125,0.022489645890375665,8.358784223722953
22.8037109375,0.022553329036373703,8.37126793390399
22.8134765625,0.022617293490770834,8.383410590326154
22.8232421875,0.022681540227752036,8.39522354772152
22.8330078125,0.02274605300202955,8.406691210249962
22.8427734375,0.022810811811357603,8.417783966408914
22.8525390625,0.0228758064592946,8.428481242428441
22.8623046875,0.02294103050987876,8.438785611473318
22.8720703125,0.023006466510052836,8.448717266068437
22.8818359375,0.02307207648805074,8.458295451965299
22.8916015625,0.023137798354200732,8.46752452646878
22.9013671875,0.023203558156250303,8.476397873948764
22.9111328125,0.023269293490760682,8.484916614806217
22.9208984375,0.023334967492709007,8.493106849379846
